,id,brightness_picture,sharpness_picture,entropy_picture,colorfulness_picture,contrast_picture
0,14800,109.0196888888889,11.428791124617014,1.728911111111111,75.1131221443901,0.96062994
1,14801,131.6179888888889,15.418543493379127,1.802011111111111,56.92385987147773,24.4
2,14802,113.0693,10.062396268344195,1.5878777777777777,65.55612587339581,13.941176
3,14803,105.71716666666667,15.916335955161575,1.7541333333333333,71.28654778921249,1.0
4,14804,162.72212222222223,11.469381432792135,1.483311111111111,64.32037933591303,13.111111
5,14805,146.65238888888888,9.329653738538173,1.5620444444444443,88.91483995873631,62.5
6,14806,116.2534111111111,8.916244124524733,1.5186,92.45647114577753,0.983871
7,14807,150.4754888888889,10.553775935313048,1.598111111111111,67.35618459710507,0.9512195
8,14808,122.21654444444444,9.541780284527182,1.5598666666666667,74.01897352917965,1.0
9,14809,104.2076888888889,12.42497944898309,1.7064222222222223,95.69138319863045,inf
10,14810,117.73465555555556,8.832546006559802,1.5404444444444445,64.5365746715679,35.285713
11,14811,124.32242222222222,11.805894934237227,1.6423222222222222,31.528354657832,35.285713
12,14812,130.4635111111111,11.673298687516963,1.6187111111111112,38.2514505248265,0.9758065
13,14813,155.96367777777778,5.742694315228954,1.3074666666666668,70.09277561823819,24.2
14,14814,127.14523333333334,10.94233129664667,1.6329222222222222,42.051903774109846,0.9839357
15,14815,144.65141111111112,8.725408482854698,1.3820222222222223,40.576605741254305,1.0
16,14816,160.1593,10.784941309323612,1.6308222222222222,62.75747774107134,1.0
17,14817,132.45326666666668,10.297734700674118,1.6525555555555556,56.02762589161711,126.0
18,14818,114.45972222222223,10.631158913973874,1.6302,41.421394968429254,253.0
19,14819,131.06426666666667,13.594806519479654,1.6609222222222222,77.02926228606233,1.0
20,14820,148.10113333333334,9.668812487016575,1.6840777777777778,35.80188665764784,0.98373985
21,14821,105.67986666666667,10.768697861859442,1.4190666666666667,49.416111355301766,1.0
22,14822,83.8750111111111,6.277045806205071,1.2136,27.69251415255549,1.0
23,14823,127.80078888888889,10.814427804593588,1.5893111111111111,61.42939785373493,0.99215686
24,14824,120.69678888888889,10.50011983026807,1.6669222222222222,105.0086384288511,1.0
25,14825,151.4891111111111,6.379008765031011,1.2410333333333334,79.14343639653119,6.9375
26,14826,112.5055,10.14643699376723,1.6049,69.258866781477,62.5
27,14827,117.46567777777778,13.368388837689102,1.531211111111111,30.50767181515622,1.0
28,14828,105.60906666666666,21.378729998784788,1.7409444444444444,20.36447588225097,27.222221
29,14829,171.12204444444444,11.519307022469793,1.5341666666666667,53.87519760868784,41.333332
30,14830,97.99331111111111,11.875693702367592,1.5910333333333333,71.40511033330287,1.0
31,14831,125.1746,14.534465835316922,1.6611444444444445,84.17524892342223,1.0
32,14832,132.9326,12.301472776082282,1.6158222222222223,46.90361508650405,1.0
33,14833,131.06251111111112,5.05304832196485,1.2406,45.36985574811767,0.91803277
34,14834,173.95045555555555,5.650521433444941,1.4439555555555557,36.03477431392145,30.75
35,14835,122.61584444444445,6.237151293865937,1.2074555555555555,42.53748237077443,0.9354839
36,14836,93.58862222222223,15.778606360767812,1.5334666666666668,37.39839468383297,1.0
37,14837,127.07991111111112,17.510916355280727,1.7929333333333333,38.29571649848265,1.0
38,14838,116.68677777777778,6.012056028989567,1.4057111111111111,78.69150986186486,41.333332
39,14839,154.80916666666667,10.02439884220489,1.5436555555555556,76.6504345083522,253.0
40,14840,98.6846,9.519135720756474,1.3986444444444444,55.711462185847736,1.0
41,14841,156.9557,7.360243140503381,1.5446555555555554,37.61664097496785,14.875
42,14842,128.15165555555555,13.556218243504714,1.6055222222222223,112.84303948896314,1.0
43,14843,117.21064444444444,11.587340692378657,1.521288888888889,55.00847319668932,0.95983934
44,14844,112.49536666666667,16.14618882384799,1.7336444444444445,59.133507007070016,41.333332
45,14845,153.79945555555557,9.552443521159708,1.435888888888889,111.25581894052013,24.4
46,14846,156.70593333333332,10.623711714203809,1.5520555555555555,40.52055536992767,1.0
47,14847,125.66052222222223,11.194540337187357,1.537411111111111,37.16618863391081,1.0
48,14848,131.3316888888889,8.807885435628057,1.6655333333333333,43.80899372350253,251.0
49,14849,102.32725555555555,17.909958040428435,1.738611111111111,41.261879898307484,1.0
50,14850,133.49313333333333,7.859653018251119,1.4786333333333332,68.55966140516254,inf
51,14851,142.57175555555557,11.512720589468616,1.601911111111111,40.08197344237557,14.875
52,14852,113.50344444444444,8.642568697742993,1.5654555555555556,45.33828838930674,0.9529412
53,14853,106.11002222222223,7.261333839815446,1.5404222222222221,28.13333584776436,1.0
54,14854,100.44558888888889,7.393009389983102,1.466811111111111,65.75115308345866,0.981982
55,14855,129.15568888888887,3.9150573815252345,1.1859555555555557,65.10873556761109,0.9423868
56,14856,138.45407777777777,17.302402341326868,1.7544777777777778,42.38379491519716,1.0
57,14857,145.8284,11.04153289677417,1.529711111111111,56.34128105059086,125.0
58,14858,110.90903333333333,11.18644492777308,1.4147777777777777,112.05844476449417,1.0
59,14859,132.23983333333334,15.676676088059017,1.7861111111111112,38.2852486838123,83.666664
60,14860,142.61282222222223,8.794453562691956,1.5057222222222222,41.504260866816026,126.0
61,14861,95.97774444444444,17.165854447257722,1.7901888888888888,65.99773771697076,1.0
62,14862,138.60624444444446,8.611020296912269,1.5370555555555556,90.4643944068892,22.09091
63,14863,132.42397777777776,4.530602224663262,1.2634555555555556,35.0160167719321,1.0
64,14864,140.94416666666666,9.828561641325297,1.6246333333333334,61.91685984928028,30.75
65,14865,113.21622222222223,4.194554691867564,1.3877444444444444,34.98690966817922,0.74693877
66,14866,90.73785555555556,10.826442327904818,1.5264888888888888,74.26724512805532,1.0
67,14867,165.02831111111112,10.631218951501053,1.4072555555555555,52.91661606769345,35.285713
68,14868,120.27037777777778,3.805641244699538,1.2349222222222223,49.08470518152985,0.7457627
69,14870,176.03156666666666,7.745756140165121,1.0298888888888889,61.371052838694986,83.666664
70,14871,116.77314444444444,9.297077417953712,1.6152,52.06920552559919,1.0
71,14872,99.27462222222222,7.124101449936347,1.4632777777777777,67.71017733763321,inf
72,14873,131.56835555555554,7.034332911640169,1.4872888888888889,95.40204333314756,17.142857
73,14874,97.47335555555556,9.640447750318978,1.5199111111111112,76.69527923092213,1.0
74,14875,111.57683333333334,12.82856621845781,1.6776444444444445,39.45560672415796,1.0
75,14876,137.65195555555556,11.940987326784722,1.587711111111111,36.42033281223443,1.0
76,14877,102.66454444444445,8.34499755446304,1.3690222222222221,59.85300407980852,1.0
77,14878,135.06696666666667,11.482635399205844,1.4902222222222221,48.87813615141222,1.0
78,14879,123.36034444444445,11.052617215798021,1.7526777777777778,84.58183020237499,62.5
79,14880,144.03921111111111,3.791898647144398,1.1327888888888888,11.962984790249724,15.666667
80,14881,103.89431111111111,8.735608184661604,1.4911444444444444,83.83964933931694,9.16
81,14882,120.36191111111111,7.125091089211842,1.4179,72.65863492605479,48.6
82,14883,103.07793333333333,6.943760092995201,1.4146777777777777,63.178210201596336,inf
83,14884,95.867,5.806066990272772,1.4600666666666666,52.46611006293632,1.0
84,14885,87.1656111111111,8.306892037302639,1.287111111111111,33.50072533666815,1.0
85,14886,129.85337777777778,3.2137032820434905,0.8721777777777778,58.565303529205494,11.095238
86,14887,127.90941111111111,17.686596028177554,1.7476888888888888,37.14631411919697,inf
87,14888,162.94956666666667,6.227989933365959,1.4293666666666667,46.391887793672595,10.545455
88,14889,112.14662222222222,4.586342796795646,1.1868333333333334,109.98946145347296,22.09091
89,14890,108.96815555555555,11.720121997339277,1.3245333333333333,68.33266998168503,1.0
90,14891,137.93314444444445,5.0126055634652,1.3363333333333334,24.575339395377767,0.966805
91,14892,130.89447777777778,3.878798468507039,0.8891444444444444,56.3527081679191,7.7586207
92,14893,109.11842222222222,13.372893439411197,1.496488888888889,67.00658271251156,1.0
93,14894,119.53607777777778,8.513309255202795,1.3707444444444445,42.95206832698191,253.0
94,14895,135.6773,6.4478471779270095,1.3366,80.15689458490857,80.333336
95,14896,168.43737777777778,11.960344604719335,1.3091666666666666,41.15664122621956,253.0
96,14897,120.10222222222222,5.663944229698617,1.2482333333333333,26.485987367217746,14.875
97,14898,117.8026,3.5335354100002294,1.1104888888888889,83.78911669425825,1.0
98,14899,175.7072777777778,4.888052109619199,0.9444222222222223,62.01405926488267,0.99215686
