,id,brightness_picture,sharpness_picture,entropy_picture,colorfulness_picture,contrast_picture
0,13300,106.3369,13.727183808345172,1.710788888888889,46.53861674826544,83.66666412353516
1,13301,0.0,0.0,0.0,0.0,0.0
2,13302,66.97322222222222,2.621295312925172,1.0085444444444445,22.1325422208533,34.66666793823242
3,13303,105.33966666666667,11.407303311774184,1.2728222222222223,65.70176836431973,1.0
4,13304,135.2313111111111,11.084161077250291,1.5893555555555556,32.746169260929186,22.090909957885742
5,13305,106.88114444444444,8.356949339075065,1.5710666666666666,47.0732299767303,1.0
6,13306,110.56674444444444,10.670054891065007,1.5764333333333334,101.84409270683993,253.0
7,13307,116.73313333333333,7.819931820864306,1.4185444444444444,63.37443565475952,126.0
8,13308,107.67024444444445,5.2448873490100105,1.2693666666666668,48.89549167585202,14.875
9,13309,121.78433333333334,13.250122320412865,1.676388888888889,45.28211536220458,1.0
10,13310,164.8985,5.4776289562657,1.170188888888889,49.69803964093474,30.75
11,13311,129.9557888888889,9.224390388765425,1.5493444444444444,81.02409143367409,125.0
12,13312,179.73464444444446,7.39955259837781,1.2744444444444445,29.881652140197517,49.79999923706055
13,13313,84.37571111111112,4.846913477690457,1.0839444444444444,24.6431980660903,1.0
14,13314,168.52344444444444,1.264673946604348,0.6296111111111111,38.944021622119195,3.0317461490631104
15,13315,113.42645555555555,8.367126726220125,1.5178444444444446,48.936669163184014,20.16666603088379
16,13316,131.81643333333332,6.0754161678352085,1.3316,53.16560553991978,1.0
17,13317,118.79572222222222,10.642929418268055,1.5105111111111111,31.431399060755624,1.0
18,13318,97.47433333333333,12.9002502808578,1.7131888888888889,72.15917311675264,inf
19,13319,111.22195555555555,5.165466342577138,1.1235666666666666,34.33124090997394,41.33333206176758
20,13320,116.7069,8.73154714566508,1.5589777777777778,28.15585751882095,0.9836065769195557
21,13321,74.5671888888889,5.639931332441607,1.2782333333333333,33.623566571110956,13.11111068725586
22,13322,89.4682,8.21505107078873,1.5252777777777777,47.12588958382148,126.0
23,13323,121.53402222222222,11.541297076018825,1.6741555555555556,71.58433643390796,15.933333396911621
24,13324,133.54721111111112,4.83189707920107,1.3406777777777779,74.81861116408685,12.052631378173828
25,13325,128.4996111111111,7.819037647592351,1.3853666666666666,61.345057175164946,30.75
26,13326,129.85506666666666,11.04620153451399,1.6437222222222223,79.8260116600325,27.22222137451172
27,13327,171.57436666666666,6.744881243069076,1.2013333333333334,65.46125995155603,1.0
28,13328,144.25284444444443,6.730421310171073,1.4399444444444445,61.413706261280375,35.28571319580078
29,13329,119.59804444444444,11.08300484427136,1.5614444444444444,79.39864483844335,20.16666603088379
30,13330,103.7238888888889,7.657294266662102,1.4675333333333334,64.45343230300479,1.0
31,13331,0.0,0.0,0.0,0.0,0.0
32,13332,107.69787777777778,10.000530305606864,1.6630555555555555,29.28083837974776,253.0
33,13333,88.46672222222222,13.918326804914038,1.5032222222222222,72.62656034088707,1.0
34,13334,128.199,6.614782734864873,1.3512,92.25705950246449,1.0
35,13335,166.74564444444445,7.506959167613448,1.0059111111111112,68.87578031244522,inf
36,13336,134.94234444444444,6.384957972599201,1.4154,64.24691288972237,34.71428680419922
37,13337,124.954,14.313838324647666,1.7641111111111112,63.92708088743886,41.33333206176758
38,13338,93.31556666666667,12.917467534559522,1.4760555555555555,48.612494530147735,1.0
39,13339,126.06932222222223,13.413880994473983,1.662811111111111,57.95553384711455,83.66666412353516
40,13340,119.85056666666667,6.544189789582355,1.3051444444444444,46.73704388779599,49.79999923706055
41,13341,127.40353333333333,13.64017498969832,1.5997,55.514229637633356,253.0
42,13342,104.2636,4.962217514305827,1.2584111111111111,50.49405516727934,1.0
43,13343,105.04717777777778,6.943677220296807,1.365688888888889,49.12353793741394,1.0
44,13344,104.56144444444445,11.32417556565813,1.5603,64.79279430337594,1.0
45,13345,98.01618888888889,5.544959276212627,1.3772444444444445,67.81158659018956,21.727272033691406
46,13346,167.97337777777778,7.012106534812736,1.493,57.08804843484539,11.699999809265137
47,13347,137.63844444444445,8.064672946368496,1.4153333333333333,61.39238673620733,1.0
48,13348,137.6834888888889,11.961433486561466,1.5834,68.87968288655564,126.0
49,13349,110.61068888888889,11.20039998792219,1.4223333333333332,27.75065855966333,1.0
50,13350,186.38236666666666,5.310791841318129,1.1196,115.46382765413608,9.15999984741211
51,13351,108.0229,9.576858598325352,1.4125666666666667,88.88303749488213,0.9841897487640381
52,13352,111.39108888888889,10.588044459165376,1.5511222222222223,42.896299476539006,1.0
53,13353,103.75282222222222,13.124517559565778,1.5517555555555556,58.594461308491496,1.0
54,13354,80.33846666666666,10.66933598452694,1.4105,69.04719029928889,41.33333206176758
55,13355,146.0312,10.352719178399425,1.4795,59.588945199733544,35.28571319580078
56,13356,89.53413333333333,7.64538263272288,1.4434888888888888,46.81916357409299,inf
57,13357,145.0228,6.651547670050717,1.2848222222222223,48.82109009822612,41.33333206176758
58,13358,136.19403333333332,11.36790990142182,1.6421444444444444,33.89286965777971,20.16666603088379
59,13359,0.0,0.0,0.0,0.0,0.0
60,13360,0.0,0.0,0.0,0.0,0.0
61,13361,114.67696666666667,10.664338456726679,1.6594555555555555,68.19460401135932,124.0
62,13362,140.37906666666666,4.150758016349077,1.1264888888888889,73.20856645980176,41.33333206176758
63,13363,89.98575555555556,10.839442466205917,1.5327666666666666,49.0964860642668,1.0
64,13364,119.50097777777778,9.548173867290787,1.6309777777777779,60.4623420708742,82.33333587646484
65,13365,0.0,0.0,0.0,0.0,0.0
66,13366,173.10003333333333,9.303725955417903,1.4853222222222222,40.08519612749074,13.11111068725586
67,13367,113.43744444444444,9.458367555639875,1.5893333333333333,74.01970119352839,13.11111068725586
68,13368,88.29855555555555,4.758736587455775,1.250988888888889,35.22916053474435,inf
69,13369,99.7234,9.908744109706783,1.6284333333333334,83.64009934924985,126.0
70,13370,120.3249,6.642905777007784,1.3823666666666667,72.69387813511582,1.0
71,13371,99.42952222222222,6.766790238197302,1.3399222222222222,64.26039182294369,inf
72,13372,115.59661111111112,15.045404028231992,1.7465333333333333,54.83141265138417,62.5
73,13373,106.59128888888888,6.56506443762353,1.4433777777777779,66.80011037569858,20.0
74,13374,177.2134888888889,6.075541396726127,1.455111111111111,42.45798509799816,11.699999809265137
75,13375,159.1042,8.353580978060123,1.2647555555555556,87.5092871277142,1.0
76,13376,134.45864444444445,7.385471736541941,1.3237222222222222,59.761674061437745,inf
77,13377,140.474,5.865341986049664,1.319288888888889,51.70641425948731,30.0
78,13378,93.41292222222222,12.796449828359746,1.674511111111111,71.10128769806056,1.0
79,13379,127.75231111111111,8.662215643600852,1.5077222222222222,80.03233717612565,1.0
80,13380,106.18317777777777,4.352102116895697,1.0164777777777778,61.58063469407238,1.0
81,13381,137.71404444444445,4.77231957165954,1.3267555555555555,91.15084390894162,0.929411768913269
82,13382,0.0,0.0,0.0,0.0,0.0
83,13383,167.34986666666666,7.0072393407667235,1.5396777777777777,39.68062097619288,126.0
84,13384,124.10771111111112,6.609275794920215,1.4681555555555557,59.8737547549449,1.0
85,13385,0.0,0.0,0.0,0.0,0.0
86,13386,102.01528888888889,2.0779702608454045,0.7667888888888889,36.75375614377523,1.0
87,13387,106.9449,4.324003633777384,1.097511111111111,32.51511098652574,inf
88,13388,112.86355555555555,5.550822444773871,1.0540888888888889,38.36490190389899,1.0
89,13389,147.74632222222223,8.835052408805243,1.5873111111111111,40.24482455069643,30.75
90,13390,162.27216666666666,9.77765977522645,1.4351777777777779,67.09306293832509,245.0
91,13391,119.67856666666667,6.283663567468203,1.3636333333333333,68.67233096429015,83.0
92,13392,186.3252222222222,8.280632947284447,1.137688888888889,36.86494445765106,27.22222137451172
93,13393,129.09168888888888,7.295799598651611,1.4552555555555555,42.9779254530699,17.14285659790039
94,13394,166.95353333333333,5.355976365208374,1.2435888888888889,59.438294825987285,8.615385055541992
95,13395,128.79584444444444,6.93533892743951,1.4421,28.493369438252444,27.22222137451172
96,13396,100.75366666666666,6.244614164874932,1.3674555555555556,59.50580474595307,1.0
97,13397,121.16765555555556,7.371740719398153,1.3879333333333332,58.15684858027698,0.9367588758468628
98,13398,148.34702222222222,7.013525491545747,1.2322333333333333,81.98111247066934,62.5
99,13399,157.59566666666666,8.16516755623152,1.3106444444444445,88.7986222936992,11.699999809265137
