,id,brightness_picture,sharpness_picture,entropy_picture,colorfulness_picture,contrast_picture
0,14700,103.17487777777778,10.275914471715426,1.5013666666666667,96.90658368456839,1.0
1,14701,105.52407777777778,8.84756362594392,1.4680555555555554,33.967652254864426,62.5
2,14702,147.99408888888888,9.196767988748986,1.3476555555555556,35.80593778389135,49.79999923706055
3,14703,110.29657777777778,5.448481955845327,1.4336444444444445,34.44109994363186,11.095237731933594
4,14704,111.56668888888889,13.165781410226863,1.7210444444444444,70.34053559122367,1.0
5,14705,121.89937777777777,5.383659989071729,1.2607,91.17483907894442,20.0
6,14706,157.29543333333334,9.463440741273816,1.5426111111111112,62.404519414829096,83.66666412353516
7,14707,104.60633333333334,8.582873661500724,1.5680555555555555,51.194302433070305,1.0
8,14708,99.53281111111112,11.153651151532463,1.6761444444444444,47.78631413527977,126.0
9,14709,140.5705888888889,12.734527938458235,1.5729,79.18791622134717,1.0
10,14710,153.53642222222223,8.559228546110484,1.5380666666666667,42.11736130926578,27.22222137451172
11,14711,149.20106666666666,10.97833171836798,1.5990444444444445,55.68193619512547,1.0
12,14712,115.71965555555556,10.8800273153329,1.4274777777777778,18.31213589718631,1.0
13,14713,91.43483333333333,17.82110218502788,1.7323,56.7656042744581,1.0
14,14714,108.55941111111112,6.746130824376132,1.2643444444444445,52.327399667766855,62.5
15,14715,116.96166666666667,7.8830879618468135,1.575288888888889,54.17926598986176,inf
16,14716,88.96337777777778,7.238501287699812,1.3448444444444445,53.71116187093371,253.0
17,14717,123.2726,10.457071671086082,1.5993444444444445,67.03494736505722,20.16666603088379
18,14718,127.76887777777777,13.025380349885271,1.5850333333333333,58.25971637695723,253.0
19,14719,96.7141,9.154423138866953,1.5557666666666667,70.88725078120642,inf
20,14720,103.49732222222222,8.690516892254804,1.4834333333333334,62.242148408678865,126.0
21,14721,71.12353333333333,5.687490739256127,1.4506777777777777,34.79025925828767,1.0
22,14722,138.38803333333334,8.653239555487588,1.4693666666666667,91.420301826167,30.75
23,14723,131.15023333333335,6.868625846513199,1.3448222222222221,41.93307729310908,1.0
24,14724,130.7844,9.323271890549965,1.5970777777777778,47.15753540636496,27.22222137451172
25,14725,117.26224444444445,13.482243141169143,1.7082555555555556,98.71333042452704,24.399999618530273
26,14726,156.6900777777778,8.380767702663597,1.5203777777777778,83.28245550639541,41.33333206176758
27,14727,131.14333333333335,13.602641833265483,1.7111222222222222,77.12295383184593,41.33333206176758
28,14728,90.06274444444445,9.94067230232923,1.7124222222222223,53.73796288019295,1.0
29,14729,122.43201111111111,13.578015959673008,1.6457111111111111,37.67427318135036,1.0
30,14730,113.5549,16.8678853990429,1.8017444444444444,46.44247429018313,253.0
31,14731,117.56006666666667,9.023586287282736,1.5006222222222223,71.31991259425236,0.984000027179718
32,14732,112.33994444444444,14.778442089377478,1.6558555555555556,56.223290773550275,1.0
33,14733,78.20336666666667,9.44707385264342,1.5937222222222223,67.45459818817011,253.0
34,14734,139.77852222222222,11.231131838906293,1.677988888888889,43.0106551977094,20.0
35,14735,99.92664444444445,9.47832616284377,1.6696,40.30220731248026,30.75
36,14736,116.23852222222222,11.90865314615753,1.567511111111111,86.07093419879506,126.0
37,14737,125.75832222222222,10.023795150778657,1.440411111111111,67.07920888133258,1.0
38,14738,109.90496666666667,10.701079640634697,1.6683666666666668,64.85205246600486,0.9583333134651184
39,14739,101.57956666666666,8.831822647423953,1.4096444444444445,39.94890002601942,24.399999618530273
40,14740,96.61985555555556,6.881924192414228,1.5054666666666667,46.47680360966186,13.941176414489746
41,14741,145.2270888888889,8.42025458658931,1.4888666666666666,52.535179819907356,247.0
42,14742,92.86304444444444,13.758348106195804,1.5755777777777777,42.98516354672459,1.0
43,14743,109.46411111111111,4.8044489859600645,1.2935666666666668,44.04597766518193,27.0
44,14744,93.8523111111111,13.644380200908163,1.720788888888889,33.87397457001316,60.0
45,14745,112.66452222222222,14.432304239733753,1.5717333333333334,47.50717849920942,1.0
46,14746,85.11492222222222,8.497620439227473,1.3600222222222222,61.936342996039926,1.0
47,14747,119.57991111111112,8.871954307746474,1.5526888888888888,52.210980414087686,253.0
48,14748,136.2317888888889,6.381973475766787,1.3970111111111112,44.23475737351346,15.933333396911621
49,14749,132.57526666666666,7.995718145775453,1.5844222222222222,91.93757757081906,1.0
50,14750,143.7128888888889,8.025083235100167,1.2564666666666666,38.937914920673386,1.0
51,14751,129.89125555555555,11.950806916475997,1.5623888888888888,57.47766866402321,1.0
52,14752,133.30623333333332,6.754308120689731,1.473111111111111,28.005781047666666,27.22222137451172
53,14753,97.66573333333334,11.165689088852362,1.5163777777777778,78.63680549576299,35.28571319580078
54,14754,123.01863333333333,6.273297223251848,1.3940666666666666,55.345082931266184,41.0
55,14755,120.66981111111112,6.62606932209935,1.4137444444444445,72.40464488377461,83.0
56,14756,101.90448888888889,12.79389040517485,1.5206,55.15759302609855,1.0
57,14757,0.0,0.0,0.0,0.0,0.0
58,14758,155.19444444444446,9.979018247748305,1.3788111111111112,81.8478568777564,1.0
59,14759,138.47525555555555,8.127399536621361,1.3955555555555557,63.19000376501211,inf
60,14760,0.0,0.0,0.0,0.0,0.0
61,14761,139.62036666666665,7.101260206952969,1.453111111111111,91.79515482927332,83.0
62,14762,132.64315555555555,7.5691058668687345,1.3196555555555556,63.72885461234202,203.0
63,14763,90.70645555555555,9.0044741039226,1.4982555555555555,53.14492493330053,1.0
64,14764,138.45504444444444,5.753824538983763,1.4175222222222221,73.05078077182634,46.20000076293945
65,14765,124.31207777777777,9.073260938537711,1.5659666666666667,66.62307271574211,83.66666412353516
66,14766,119.5877,11.95835199504345,1.4431444444444443,45.707621935092746,62.5
67,14767,108.29998888888889,7.896548243623161,1.3666,63.230908274378024,7.4666666984558105
68,14768,108.54467777777778,8.204831212003233,1.4956444444444446,41.6818946196825,235.0
69,14769,97.59163333333333,7.3231910648017,1.4545777777777777,63.63257745052019,126.0
70,14770,101.86314444444444,8.205305622025499,1.622411111111111,43.0838554230791,0.992094874382019
71,14771,61.94573333333334,9.740754776540536,1.3230666666666666,106.94603170530415,1.0
72,14772,122.18154444444444,10.114021764183207,1.7039111111111112,37.89145766269783,57.5
73,14773,115.93907777777778,22.273100938909266,1.7498,47.517832784850654,1.0
74,14774,104.50693333333334,8.663572875643279,1.4518444444444445,79.67161708572945,253.0
75,14775,134.9183888888889,8.268951114249766,1.5137222222222222,61.10661510152586,126.0
76,14776,115.29576666666667,12.64018391288738,1.6841666666666666,64.22198491661685,0.9130434989929199
77,14777,173.67627777777778,7.2272875837440615,1.2367444444444444,91.76230632282007,41.33333206176758
78,14778,156.61095555555556,8.270904674433877,1.5143222222222221,59.2424766753212,16.85714340209961
79,14779,189.66456666666667,9.538644034991723,1.2393222222222222,57.12276766084588,15.933333396911621
80,14780,109.81655555555555,8.946398953769632,1.6050444444444445,62.83724385685818,57.5
81,14781,120.2975,10.910014208162718,1.4809333333333334,96.07521628337689,1.0
82,14782,124.65075555555556,8.659813524878116,1.5294444444444444,101.16466346086833,0.8683127760887146
83,14783,0.0,0.0,0.0,0.0,0.0
84,14784,157.51703333333333,9.562820019948829,1.4250666666666667,84.60975504648874,0.9051383137702942
85,14785,157.21335555555555,9.367542444230455,1.535188888888889,46.36627507706704,49.400001525878906
86,14786,121.26682222222222,9.236138805259092,1.4743444444444445,63.595472221933605,inf
87,14787,104.51046666666667,7.071580370568851,1.4839777777777778,46.019660861960496,0.9843137264251709
88,14788,161.46872222222223,8.500468384390095,1.364,70.35422559878478,83.66666412353516
89,14789,91.09852222222223,9.859279358702185,1.1078,52.37197140856363,1.0
90,14790,172.6926222222222,5.220583950087593,1.1834666666666667,40.62207582783776,6.9375
91,14791,112.45575555555556,9.181394759349605,1.5984777777777779,56.616411032906186,1.0
92,14792,0.0,0.0,0.0,0.0,0.0
93,14793,140.55308888888888,5.754627025538366,1.4634666666666667,50.204512756929844,12.368420600891113
94,14794,105.28686666666667,10.457428899596598,1.5812555555555556,61.571833262854945,inf
95,14795,0.0,0.0,0.0,0.0,0.0
96,14796,119.17292222222223,7.735662850811713,1.613388888888889,63.52481120500249,120.0
97,14797,179.72352222222221,5.980111638243402,1.4198,51.33789864491835,15.0
98,14798,77.37041111111111,8.209527020767558,1.2773444444444444,22.104661917789752,83.66666412353516
99,14799,89.87276666666666,11.53089644460785,1.537,54.09385781646481,62.5
