,id,brightness_picture,sharpness_picture,entropy_picture,colorfulness_picture,contrast_picture
0,13200,134.97967777777777,5.6532449561627915,1.3771222222222221,25.86506996851034,35.0
1,13201,135.21504444444443,6.379553070866765,1.3871444444444445,57.081049051652315,20.16666603088379
2,13202,103.46654444444444,9.66256883068323,1.5456222222222222,96.59138836312499,1.0
3,13203,129.58285555555557,15.336373868156066,1.5694222222222223,26.56039155826468,1.0
4,13204,171.81163333333333,4.364613315852033,0.8525555555555555,44.57232529482666,1.0
5,13205,86.63183333333333,7.523425054381985,1.333188888888889,31.965903406647687,62.5
6,13206,116.6947888888889,8.157499419498388,1.5548,60.51357262292706,83.66666412353516
7,13207,128.6353,5.020216982001718,1.2976,58.091904333626914,1.0
8,13208,118.70267777777778,4.860780803550693,1.1735444444444445,60.633258854320516,41.33333206176758
9,13209,202.6453111111111,6.339496594158499,1.158011111111111,49.79103122037276,1.0
10,13210,144.02738888888888,7.427123523459155,1.3489444444444445,79.58713426606415,22.090909957885742
11,13211,155.2045222222222,8.675986152600963,1.4416555555555555,63.72400065645452,14.875
12,13212,129.0435222222222,5.56032335965311,1.2618111111111112,50.317312573138096,27.22222137451172
13,13213,96.52204444444445,7.394898609883377,1.4490888888888889,39.89216009841653,1.0
14,13214,100.49444444444444,10.665333120694836,1.4695111111111112,69.30239725871353,1.0
15,13215,201.53662222222223,5.6473448189700415,1.156511111111111,61.120127881903876,8.769230842590332
16,13216,120.54794444444444,13.561656299880442,1.7359111111111112,79.4407391353694,1.0
17,13217,141.4967,10.850058422816042,1.6340444444444444,66.70780085904644,126.0
18,13218,134.84745555555557,6.227653870710054,1.3408333333333333,24.749698018085603,inf
19,13219,0.0,0.0,0.0,0.0,0.0
20,13220,108.92221111111111,15.816141608335187,1.6635555555555555,47.80165430784243,35.28571319580078
21,13221,121.48756666666667,5.678303354860352,1.3165222222222221,42.540359045084344,1.0
22,13222,130.10178888888888,8.407712976566293,1.5839777777777777,80.83117164439119,24.200000762939453
23,13223,108.01812222222222,6.976651035391777,1.3722555555555556,43.59209680008289,inf
24,13224,123.06401111111111,8.846791714452255,1.592211111111111,47.50385086976343,62.5
25,13225,106.75031111111112,8.68703601987113,1.4864,39.660041943150844,41.0
26,13226,163.06903333333332,3.6345793723965425,1.2196222222222222,52.827642186529886,12.368420600891113
27,13227,149.93731111111111,8.545716909289528,1.432711111111111,73.86603865996739,1.0
28,13228,115.1802,7.682675725557608,1.4112333333333333,72.32153975393372,83.66666412353516
29,13229,143.0595,6.3993979157341565,1.2924333333333333,55.55037983638571,0.9764705896377563
30,13230,151.99246666666667,10.688665432852938,1.6602,51.50105240682204,1.0
31,13231,119.69167777777778,8.619341503489427,1.6193,62.953972268277,10.545454978942871
32,13232,134.0696888888889,8.060047701754055,1.4844555555555556,58.44471814645455,49.79999923706055
33,13233,122.4691111111111,9.26782918036894,1.5825777777777779,56.59132366664114,15.933333396911621
34,13234,174.1219,6.732428656500345,1.0677777777777777,40.736578408620055,35.28571319580078
35,13235,125.1241888888889,12.743272078833506,1.6174666666666666,71.48625032906722,inf
36,13236,113.8934111111111,6.956396551706212,1.0599444444444444,47.21654184218262,1.0
37,13237,147.21212222222223,8.930338413828167,1.553,66.52756779115201,83.66666412353516
38,13238,122.28765555555556,5.754815663783213,1.2098888888888888,67.30524599557819,1.0
39,13239,115.1005888888889,6.936219152507121,1.3839333333333332,47.26956015669944,49.79999923706055
40,13240,0.0,0.0,0.0,0.0,0.0
41,13241,123.30313333333334,9.485610163876698,1.4925333333333333,52.022201262990585,83.66666412353516
42,13242,128.6342111111111,8.019377372672007,1.5288555555555556,59.65014845055475,126.0
43,13243,0.0,0.0,0.0,0.0,0.0
44,13244,113.90405555555556,9.503903367824835,1.4292777777777779,59.242481146958156,9.583333015441895
45,13245,117.35984444444445,4.402178700030549,0.9791777777777778,22.742904432573003,12.368420600891113
46,13246,150.51553333333334,5.856731258216971,1.1971,58.18879462569337,1.0
47,13248,119.11025555555555,11.733824420760532,1.6130888888888888,71.42598761029818,9.583333015441895
48,13249,0.0,0.0,0.0,0.0,0.0
49,13250,112.26627777777777,8.085546492273748,1.5179555555555555,36.38558102527445,inf
50,13251,158.64242222222222,6.186126500502878,1.4327,64.68444003604021,83.66666412353516
51,13252,101.81554444444444,8.029593144390528,1.5451555555555556,58.135705314369396,30.75
52,13253,115.29201111111111,7.737528710483946,1.4237555555555557,28.50285919712362,29.25
53,13254,110.30886666666666,4.181497318469843,1.272911111111111,45.10572714658542,1.0
54,13255,141.81771111111112,7.715932163958187,1.5285,62.885507292116195,7.129032135009766
55,13256,140.85427777777778,9.868944523778627,1.4447333333333334,55.063617602501154,inf
56,13257,0.0,0.0,0.0,0.0,0.0
57,13258,0.0,0.0,0.0,0.0,0.0
58,13259,107.04406666666667,5.974284503735394,1.3960222222222223,48.2800094589729,1.0
59,13260,0.0,0.0,0.0,0.0,0.0
60,13261,166.00423333333333,3.9904596328200994,1.2258555555555555,93.563359703477,4.636363506317139
61,13262,0.0,0.0,0.0,0.0,0.0
62,13263,156.1834111111111,5.870991370719102,1.2341,48.74071198573317,1.0
63,13264,157.9874888888889,9.576076553456629,1.5831555555555556,58.743312924977786,83.66666412353516
64,13265,117.10803333333334,10.79264938576149,1.4899555555555555,63.21725329042941,126.0
65,13266,98.49743333333333,4.747105472055011,1.2269444444444444,75.32158243083445,1.0
66,13267,85.18522222222222,7.172780746239853,1.3941333333333332,29.57911559106533,41.33333206176758
67,13268,103.37847777777777,16.916563806719473,1.7002,98.09171623562726,49.79999923706055
68,13269,105.33578888888889,19.57498001676328,1.8214444444444444,46.72365158152285,1.0
69,13270,145.0047888888889,2.560378178947746,0.9551333333333333,59.86344358752615,1.0
70,13271,122.2468,8.965331265979648,1.5150666666666666,63.749450970061304,83.66666412353516
71,13272,129.11635555555554,8.084808378187324,1.5730666666666666,13.621604576383461,1.0
72,13273,173.66186666666667,5.012986956685123,1.3160333333333334,43.287194723536416,6.0
73,13274,74.84734444444445,9.763648548835755,1.5035555555555555,58.89938339234848,1.0
74,13275,131.27306666666667,8.569929153097776,1.4608333333333334,70.98525799880441,41.33333206176758
75,13276,146.90286666666665,3.4509157987444423,0.9698333333333333,55.196408742959406,3.379310369491577
76,13278,127.19202222222222,8.141211272482249,1.5049666666666666,40.38502844038135,1.0
77,13279,113.96478888888889,10.90828720482162,1.5880666666666667,51.98916870331591,62.5
78,13280,109.92112222222222,8.885398462211906,1.466511111111111,55.28168020014172,1.0
79,13281,143.10353333333333,7.391947261438066,1.4010666666666667,94.58226979272,49.79999923706055
80,13282,80.4049888888889,14.44523994284587,1.6641,49.66542083738079,1.0
81,13283,154.14315555555555,9.429492300876175,1.6081222222222222,68.07013073442046,20.16666603088379
82,13284,0.0,0.0,0.0,0.0,0.0
83,13285,74.9383888888889,6.193254292162042,1.196311111111111,31.13432861685779,1.0
84,13286,0.0,0.0,0.0,0.0,0.0
85,13287,147.41871111111112,7.879029499808188,1.3787555555555555,71.62643965509024,1.0
86,13288,158.81732222222223,3.8761328655370155,1.2245222222222223,44.42049095193718,8.071428298950195
87,13289,126.8762888888889,7.089101974178709,1.505188888888889,53.76701481409142,253.0
88,13290,134.5057888888889,7.357758469543103,1.0770222222222223,61.86020782245835,1.0
89,13291,179.93004444444443,4.392810502238993,1.162288888888889,48.77521369190018,9.416666984558105
90,13292,102.13484444444444,6.8589893559564485,1.2702,81.59743566317644,14.875
91,13293,90.26556666666667,6.982026774746428,1.2094111111111112,78.3093595847593,126.0
92,13294,139.0311888888889,7.529559299078553,1.5144222222222221,53.53086374007998,35.28571319580078
93,13295,148.44278888888888,6.282778962640902,1.1674555555555555,68.53311030244363,18.230770111083984
94,13296,131.24422222222222,4.5851602022101146,1.306888888888889,64.17220246216982,6.9375
95,13297,102.59582222222222,16.969077972089618,1.6971777777777777,81.48229926164791,1.0
96,13298,92.25791111111111,6.403335329382336,1.4736333333333334,66.6784923871041,41.0
97,13299,0.0,0.0,0.0,0.0,0.0
