,id,brightness_picture,sharpness_picture,entropy_picture,colorfulness_picture,contrast_picture
0,10000,122.2979888888889,9.374180970660415,1.2740888888888888,20.11340526415148,1.0
1,10001,108.19297777777778,9.073389266974782,1.6543555555555556,62.59590306367753,14.875
2,10002,80.11931111111112,4.301789899963567,1.3840777777777777,50.05403324286446,0.9754601120948792
3,10003,138.4668888888889,8.095743218404895,1.3584888888888889,70.36370943104271,49.79999923706055
4,10004,131.49356666666668,7.910772437171395,1.4882111111111112,33.68427686026463,1.0
5,10005,0.0,0.0,0.0,0.0,0.0
6,10006,180.2299888888889,10.790892271013051,1.3677555555555556,39.31081853404778,1.0
7,10007,186.91382222222222,8.608420693467478,1.5446777777777778,98.69247128251482,5.195121765136719
8,10008,76.75322222222222,9.288603751659608,1.5501888888888888,53.57058042840705,1.0
9,10009,120.32601111111111,5.595018787854088,1.4181333333333332,78.92370827518678,125.0
10,10010,124.75033333333333,16.17790987967772,1.5993,31.55304579310777,1.0
11,10011,131.6239888888889,9.883544498957042,1.5246,59.01980959485691,18.538461685180664
12,10012,163.5617,9.310501034721378,1.5643111111111112,22.205909067937185,0.9921259880065918
13,10013,145.4598777777778,9.623912728473684,1.7083,61.14992486672473,inf
14,10014,156.90383333333332,8.187214956155023,1.3079666666666667,44.198801067273905,126.0
15,10015,117.23918888888889,7.774793675162524,1.5199666666666667,61.41522483707479,inf
16,10016,97.7012,7.754592130703385,1.283611111111111,36.62225767149054,1.0
17,10017,88.38178888888889,7.849577448278698,1.5058888888888888,31.344940741716236,1.0
18,10018,71.76144444444445,8.991531969478157,1.6526555555555555,21.679298292681512,253.0
19,10019,131.34716666666668,8.995925710440412,1.482811111111111,31.7106461839579,253.0
20,10020,138.0021,6.257739866958591,1.4148333333333334,34.77183534325163,0.7063491940498352
21,10021,134.8917111111111,9.391797873612468,1.6592444444444445,32.61618026970323,8.538461685180664
22,10022,116.61133333333333,13.510562441082941,1.7343,49.9812126099174,83.66666412353516
23,10023,154.75724444444444,13.160797567878195,1.6626,28.122363878083156,7.4666666984558105
24,10024,129.68124444444445,5.503949120580546,1.337811111111111,36.57108960713406,0.8738738894462585
25,10025,99.30855555555556,12.786140443510243,1.7269333333333334,28.410367193409083,1.0
26,10026,0.0,0.0,0.0,0.0,0.0
27,10027,111.42414444444445,10.253949128321539,1.3595111111111111,54.08399080314944,0.9683794379234314
28,10028,183.1441888888889,6.123660587591057,1.196611111111111,70.85000968676466,0.9921568632125854
29,10029,208.01505555555556,8.040255653135418,0.9156666666666666,55.95142588432712,inf
30,10030,103.1147,9.408127589615747,1.320211111111111,57.456428038214135,0.992094874382019
31,10031,127.86606666666667,11.235668633084574,1.652188888888889,85.17370829678075,251.0
32,10032,145.9523111111111,10.951947978680966,1.6477555555555556,48.46911976850479,0.9440000057220459
33,10033,80.10458888888888,10.524731375670003,1.4388444444444444,45.19206308349858,126.0
34,10034,145.15843333333333,16.60192422943075,1.7471333333333334,51.25469578921711,1.0
35,10035,129.8777888888889,13.776132885889279,1.7544111111111111,45.92929248215616,1.0
36,10036,129.32114444444446,7.438224569228726,1.591888888888889,62.44214650336376,1.0
37,10037,133.94442222222222,5.576841878700987,1.3503888888888889,42.2607950064496,0.8964143395423889
38,10038,142.45237777777777,7.800974165387315,1.4561666666666666,32.9829212042828,8.769230842590332
39,10039,135.49013333333335,12.577951117362744,1.5011777777777777,31.153249112354207,253.0
40,10040,60.85122222222222,9.36532776050224,1.6546888888888889,32.48037352605497,1.0
41,10041,131.34402222222224,11.610996851329919,1.5013222222222222,45.63137058746774,1.0
42,10042,0.0,0.0,0.0,0.0,0.0
43,10043,124.43892222222222,9.048654115703838,1.6109777777777778,64.0298023861148,1.0
44,10044,114.32313333333333,15.85071408170134,1.7914333333333334,81.92208478783432,0.9593495726585388
45,10045,111.02628888888889,8.822224789071367,1.5439777777777777,32.928165475388944,41.33333206176758
46,10046,124.95741111111111,4.525745329860803,1.367911111111111,74.91033190670579,0.823293149471283
47,10047,108.4586,13.100129588867054,1.5794444444444444,22.08726276892105,0.9914893507957458
48,10048,118.7472,14.28898787025952,1.5710444444444445,72.87088708928776,1.0
49,10049,114.81007777777778,8.414310665632497,1.6040444444444444,72.65470318777288,253.0
50,10050,189.80763333333334,8.837392522542373,1.1792555555555555,52.26696449867376,1.0
51,10051,137.56171111111112,13.438220026011335,1.4597444444444445,47.867969179208096,1.0
52,10052,143.21085555555555,12.915228425368815,1.7122444444444445,66.1669218403398,122.0
53,10053,84.26972222222223,8.933102123159165,1.6531555555555555,84.76853940991052,1.0
54,10054,0.0,0.0,0.0,0.0,0.0
55,10055,0.0,0.0,0.0,0.0,0.0
56,10056,127.01673333333333,11.963276442678955,1.6219,76.82845941371815,1.0
57,10057,141.5199,5.787043917165593,1.2412666666666667,54.67171973357562,0.6392157077789307
58,10058,105.67165555555556,12.195480036966377,1.593588888888889,37.558021574069635,1.0
59,10059,151.49141111111112,11.309663993266511,1.7502777777777778,32.6005608700181,0.9681274890899658
60,10060,107.24197777777778,7.723453847174948,1.4106555555555556,60.52298756180723,0.992094874382019
61,10061,126.5638,11.379845469305986,1.5323888888888888,67.72171105381021,10.043478012084961
62,10062,107.4844,5.1542357717702165,1.2303333333333333,50.21954022064553,0.9744681119918823
63,10063,152.3913777777778,9.50359551550896,1.4006222222222222,27.32377115928592,12.263157844543457
64,10064,117.93842222222223,9.094182907231698,1.5772111111111111,35.50376891029871,35.28571319580078
65,10065,133.1330888888889,15.194334005927022,1.4653555555555555,46.003896591056005,1.0
66,10066,121.7898111111111,10.737686392633535,1.4928555555555556,60.33298640946556,0.9919999837875366
67,10067,89.0920888888889,5.627212718067095,1.2986666666666666,61.66326632401446,1.0
68,10068,127.96092222222222,3.63217361724791,1.0874444444444444,54.48826820620006,81.66666412353516
69,10069,153.9021,6.206765480673013,1.4463777777777778,64.37323597722934,19.83333396911621
70,10070,116.17656666666667,14.03502394260448,1.5810444444444445,47.59523451966467,1.0
71,10071,91.58026666666666,17.175473603204978,1.7601777777777778,70.50857958491767,1.0
72,10072,130.4677888888889,9.039365869356647,1.392411111111111,34.758549635823684,13.941176414489746
73,10073,0.0,0.0,0.0,0.0,0.0
74,10074,157.57354444444445,11.929515762309062,1.6660555555555556,80.1513522171075,41.33333206176758
75,10075,160.1365888888889,11.056766099123294,1.6583666666666668,50.45408915877561,0.992094874382019
76,10076,165.34395555555557,6.579478388798561,1.5721777777777777,26.88825131174334,8.071428298950195
77,10077,147.86056666666667,15.026838527269113,1.7829444444444444,45.24525370775447,11.699999809265137
78,10078,141.76242222222223,11.192926082899577,1.7462777777777778,18.38722870186177,17.615385055541992
79,10079,110.58556666666667,11.750014675599916,1.6427222222222222,44.05621473985475,249.0
80,10080,103.96254444444445,7.264638050769244,1.2563666666666666,32.212332639217756,126.0
81,10081,0.0,0.0,0.0,0.0,0.0
82,10082,121.69892222222222,8.019531010740886,1.5309666666666666,44.58751004670973,41.33333206176758
83,10083,116.66794444444444,13.810502283088068,1.2620555555555555,45.52241227242289,inf
84,10084,120.19936666666666,13.144993135408193,1.7261111111111112,80.87469879332365,1.0
85,10085,0.0,0.0,0.0,0.0,0.0
86,10086,0.0,0.0,0.0,0.0,0.0
87,10087,126.59487777777778,10.836691980008151,1.6861777777777778,31.250672777816796,0.9416666626930237
88,10088,126.29276666666667,9.16195760637724,1.5605444444444445,41.16858645115573,0.9829787015914917
89,10089,0.0,0.0,0.0,0.0,0.0
90,10090,106.92243333333333,8.373492120280753,1.5097333333333334,42.50153466883199,0.9918699264526367
91,10091,144.67766666666665,13.724886193276088,1.4641111111111111,79.65120020465105,1.0
92,10092,155.53664444444445,7.816132573005254,1.2834444444444444,49.21338006163948,83.66666412353516
93,10093,135.74437777777777,6.9256377007301095,1.4752666666666667,76.36332341142855,1.0
94,10094,126.36398888888888,20.128828045324322,1.8184111111111112,32.59752815400255,1.0
95,10095,115.33807777777778,14.132751320907921,1.7089333333333334,83.6785861499475,1.0
96,10096,121.26205555555556,4.648191499382985,1.2896,35.46303341458686,1.0
97,10097,124.01103333333333,13.008441531253197,1.6330555555555555,46.03751608839009,49.79999923706055
98,10098,150.2222888888889,10.927056192026766,1.4858777777777779,66.1029115230307,83.66666412353516
99,10099,139.80192222222223,7.639707133916961,1.5015222222222222,22.509792046497378,62.5
