,id,brightness_picture,sharpness_picture,entropy_picture,colorfulness_picture,contrast_picture
0,23000,169.8358888888889,6.304758579412998,1.2324111111111111,89.06357048679192,49.79999923706055
1,23004,152.133,9.992168844954552,1.4091777777777779,56.392246630106634,126.0
2,23005,150.05326666666667,9.106898596354949,1.6761333333333333,37.88049376312113,1.0
3,23006,162.90692222222222,5.94636127681489,1.3034777777777777,55.105058438482786,10.043478012084961
4,23008,125.02815555555556,8.906630678075304,1.6337111111111111,94.49948224963069,0.960629940032959
5,23009,125.20611111111111,7.87925057059536,1.5503444444444445,45.84479362049285,1.0
6,23010,119.49222222222222,16.642309024223433,1.7224111111111111,58.58641050891711,18.538461685180664
7,23011,155.5762222222222,4.5395865593428795,1.2726444444444445,24.897322695587278,253.0
8,23012,112.83616666666667,5.614383858750275,1.3487,46.99129185499445,0.9754098653793335
9,23013,95.19241111111111,8.151352607890875,1.4270222222222222,64.01688803506445,1.0
10,23015,0.0,0.0,0.0,0.0,0.0
11,23016,155.35722222222222,3.402304293257674,1.1606,27.89007766186507,20.16666603088379
12,23018,116.99043333333333,12.854813440551133,1.6868444444444444,48.920561923040786,62.5
13,23020,99.30966666666667,7.922072759418136,1.5408777777777778,49.34545987964046,249.0
14,23021,80.70707777777778,7.114314436546346,1.5886333333333333,32.67169474179855,0.9673469662666321
15,23022,0.0,0.0,0.0,0.0,0.0
16,23023,124.70916666666666,10.336642956827195,1.7020222222222223,77.20965329490777,0.9921568632125854
17,23024,177.25341111111112,4.116070135086486,1.1810222222222222,55.05619155973881,1.0
18,23025,128.80236666666667,4.931748412322254,1.3460333333333334,18.39524199889879,0.8798283338546753
19,23026,138.3910888888889,7.371608123167528,1.4602444444444445,78.23149472000163,27.22222137451172
20,23027,194.4951111111111,6.504356711166089,1.1587888888888889,64.01301167994727,12.368420600891113
21,23029,84.83553333333333,6.825587512254071,1.4777333333333333,66.86553164306709,0.9604743123054504
22,23030,172.16232222222223,3.5148563403850765,1.2310555555555556,28.948258804210536,1.8965517282485962
23,23031,118.48745555555556,7.447166223542008,1.4708,47.62327304590946,20.16666603088379
24,23032,152.24315555555555,15.177886263127553,1.6104777777777777,69.77328752322107,30.75
25,23033,121.19713333333333,13.324706457900616,1.7085666666666666,78.21272323564436,1.0
26,23034,101.58414444444445,11.163075711465787,1.4629222222222222,33.597423830930765,1.0
27,23035,152.76674444444444,8.914840151002588,1.494688888888889,64.63734016794848,1.0
28,23036,129.82655555555556,5.0738360754341025,1.1590888888888888,33.09830274879933,12.368420600891113
29,23037,124.26592222222222,11.064672684818985,1.527,52.57533901484402,inf
30,23039,134.1314111111111,9.27935431709147,1.5669555555555557,63.776465735380015,inf
31,23040,133.93174444444443,7.224116478489498,1.1346,32.338270499118046,21.727272033691406
32,23041,85.76,14.577215731254025,1.491088888888889,92.44376407500984,126.0
33,23042,116.53102222222222,13.325998716721376,1.523388888888889,40.744679625492495,1.0
34,23043,118.37741111111112,6.271719986127385,1.6070777777777778,50.454838594552925,0.8849557638168335
35,23044,0.0,0.0,0.0,0.0,0.0
36,23045,161.46763333333334,8.616984176140052,1.316,66.19551458078242,1.0
37,23046,147.95721111111112,7.657202862716035,1.4636,74.57060248680575,0.9277108311653137
38,23047,119.15705555555556,9.959066912631178,1.7446777777777778,53.735330182749856,0.9529411792755127
39,23048,165.86077777777777,5.674708722264173,1.4005666666666667,32.671764631642475,24.399999618530273
40,23050,104.16753333333334,12.63942503787119,1.6769333333333334,57.34119292122168,126.0
41,23051,128.29278888888888,5.817285765110224,1.4147555555555555,21.19588316452758,113.0
42,23052,89.256,9.381710595189212,1.4658555555555555,39.38739421584121,1.0
43,23053,116.61105555555555,11.390349698042995,1.5596444444444444,35.199012907685564,22.090909957885742
44,23055,138.83545555555557,5.050132267203453,1.397988888888889,49.75161584212573,0.976190447807312
45,23056,101.75336666666666,11.439342333058248,1.6057666666666666,70.24955099265381,1.0
46,23057,77.31884444444445,14.15510429775029,1.7711444444444444,39.68138423878568,inf
47,23058,100.30223333333333,5.638924049105133,1.3326666666666667,31.83338201502651,0.9921568632125854
48,23059,84.00838888888889,6.114808234392263,1.0002333333333333,45.772096254265286,1.0
49,23060,133.58831111111112,11.914861142183545,1.563788888888889,42.05259453224409,1.0
50,23062,130.61446666666666,10.872225291202323,1.6080222222222222,73.07160896140036,253.0
51,23063,122.17894444444444,14.017229195842098,1.7194777777777779,64.06512560458562,1.0
52,23064,154.6132111111111,7.040809723782402,1.4125444444444444,61.14666575998825,125.0
53,23066,103.29304444444445,5.80365153859017,1.4000555555555556,43.437694933719015,0.7831325531005859
54,23067,111.7394,13.839377384099803,1.6005555555555555,78.54866255716391,1.0
55,23068,128.6747777777778,9.622515214606356,1.5210333333333332,45.651185051273416,126.0
56,23069,144.8556,7.407451128001074,1.4623555555555556,77.66422458141521,1.0
57,23070,126.39765555555556,9.278601419161832,1.5766555555555555,86.43894482127621,1.0
58,23071,104.11926666666666,11.529615435111975,1.6808888888888889,67.23258771838383,62.5
59,23072,146.60804444444443,16.404321916385662,1.5977,45.92175261005261,1.0
60,23073,120.5738,13.750890299545373,1.6121333333333334,58.770048849986054,253.0
61,23074,76.36502222222222,8.452995370964905,1.3713555555555557,116.57807999421178,1.0
62,23075,78.26361111111112,10.441182927673655,1.1955,46.2282448887317,1.0
63,23076,133.98196666666666,17.08005200635909,1.5998444444444444,99.5720720969683,1.0
64,23077,129.49728888888887,7.907500453043429,1.4839222222222221,62.74765511831883,17.0
65,23080,129.756,13.702135749129567,1.7563444444444445,78.23311679874277,126.0
66,23081,93.34734444444445,12.203070337647597,1.4303222222222223,54.73410810066767,1.0
67,23082,105.91786666666667,11.806534490657192,1.6662333333333332,53.99757888290321,253.0
68,23083,126.39335555555556,9.065431339384386,1.5035555555555555,64.35503567852561,49.400001525878906
69,23084,142.30195555555557,8.785254310790343,1.5356222222222222,31.820316970199528,249.0
70,23085,92.91653333333333,10.61049908328535,1.454388888888889,26.99747339803328,1.0
71,23086,187.07108888888888,4.191382474404563,1.0921888888888889,64.12960244144377,3.5357143878936768
72,23088,144.39493333333334,11.235636112769813,1.7439111111111112,49.38440136407264,0.9733333587646484
73,23089,146.2990111111111,6.183876495857271,1.4030888888888888,31.48008800088438,4.404255390167236
74,23090,116.3379,7.820547989202175,1.4534777777777779,61.54371225277369,253.0
75,23091,122.09695555555555,4.862176786625344,1.3591888888888888,47.62474815092107,7.758620738983154
76,23092,142.9613,7.8210514293478415,1.4320444444444445,47.91051273172952,1.0
77,23094,113.7114,4.92941677235907,1.4699444444444445,29.970106627102822,18.538461685180664
78,23095,144.6255888888889,6.619986934141965,1.3850888888888888,39.620860921757505,14.875
79,23096,106.07704444444444,9.530612857855639,1.5391666666666666,62.41752831314038,0.9212598204612732
80,23097,125.34103333333333,7.702823388403333,1.4183444444444444,25.699829763848527,1.0
81,23098,99.01694444444445,10.959997711870775,1.5226555555555557,83.18551744503083,253.0
82,23099,127.32205555555555,9.122406746491679,1.3575555555555556,69.91086770184856,0.992094874382019
