,id,brightness_picture,sharpness_picture,entropy_picture,colorfulness_picture,contrast_picture
0,15000,152.44108888888888,7.234400495680644,1.3635666666666666,90.7406314123899,11.699999809265137
1,15001,99.85026666666667,6.279045853504863,1.2065,70.69600127964401,62.5
2,15002,148.55406666666667,12.544380072148403,1.7814222222222222,32.934583377123566,11.5
3,15003,114.28662222222222,9.29524607523053,1.4252666666666667,79.61688713526411,41.33333206176758
4,15004,152.30105555555556,22.06702016917065,1.8314666666666666,51.33226502737226,1.0
5,15005,150.7356,9.9229982979973,1.4896333333333334,77.1293099849269,1.0
6,15006,71.35316666666667,6.462592625699818,1.216188888888889,57.090461848969234,1.0
7,15007,144.04095555555554,9.523352658540016,1.5751333333333333,55.97805786392193,0.9920318722724915
8,15008,97.07971111111111,4.896105719844138,1.4052888888888888,50.135771051752116,0.8613861203193665
9,15009,176.22537777777777,5.640688921183966,1.3111777777777778,62.91301719356387,18.538461685180664
10,15010,107.49763333333334,9.025789128529421,1.5017333333333334,56.22136927656996,1.0
11,15011,148.72505555555554,9.183183432291044,1.6002222222222222,74.08759995536411,44.20000076293945
12,15012,158.5915,6.911242477433157,1.4998222222222222,42.2417118476557,0.9918032884597778
13,15013,90.46058888888889,15.849029212774328,1.7711222222222223,61.928461659926725,1.0
14,15014,101.51556666666667,7.74125506007968,1.4653555555555555,67.3680087380003,249.0
15,15015,125.69687777777777,16.639713669859034,1.7821777777777779,57.93032623783779,1.0
16,15016,152.65435555555555,16.11361495368555,1.6118666666666666,46.89669956955348,1.0
17,15017,166.07757777777778,7.388017583543775,1.572211111111111,80.53903746457351,1.0
18,15018,119.89048888888888,7.24360109461801,1.4934222222222222,88.25127366949754,81.66666412353516
19,15019,138.9532888888889,6.398053348216189,1.4554888888888888,24.681616406464336,7.758620738983154
20,15020,126.93835555555556,17.520702504062243,1.7313,69.29344014386373,1.0
21,15021,146.7576222222222,4.487804733630577,1.2582888888888888,61.12527684984795,7.400000095367432
22,15022,111.61825555555555,12.070565503738935,1.6479777777777778,35.5388834092596,83.66666412353516
23,15023,109.7586,9.762749452568999,1.5044444444444445,98.17974538504647,1.0
24,15024,158.0286,9.781412415595966,1.6546333333333334,30.70124404948355,7.758620738983154
25,15025,101.68342222222222,5.737023667427918,1.4003444444444444,81.04234508423316,0.9708737730979919
26,15026,133.285,7.532709541603813,1.4774222222222222,61.34143774720169,inf
27,15027,110.64246666666666,7.853760280041184,1.571788888888889,38.797338195753426,20.16666603088379
28,15028,151.68625555555556,12.700501831409365,1.6252333333333333,82.50282048721995,49.79999923706055
29,15029,106.95184444444445,13.09367179387583,1.5950222222222221,51.29477745260306,1.0
30,15030,161.59092222222222,8.87702018697352,1.5378333333333334,69.66393327831273,19.83333396911621
31,15031,94.25305555555556,20.12627014855336,1.8281,73.20729379685555,1.0
32,15032,111.62916666666666,11.576803097403594,1.6636111111111112,82.0440679389825,inf
33,15033,175.61131111111112,4.8773866815276765,1.0434666666666668,71.30995204184799,8.071428298950195
34,15034,123.41372222222222,14.197131776029538,1.7136555555555555,50.824224362267906,inf
35,15035,109.88063333333334,22.785889512764257,1.8382,70.925978302094,inf
36,15036,126.37698888888889,16.390660561908913,1.713111111111111,68.11369888355306,251.0
37,15037,158.43447777777777,10.732950400649088,1.3307111111111112,51.1609309468589,1.0
38,15038,148.42407777777777,8.717080756090137,1.331388888888889,58.720489851713175,62.5
39,15039,136.01824444444443,8.643653292917332,1.5644111111111112,81.33702703399666,0.8813559412956238
40,15040,131.10812222222222,8.161261926732365,1.4203666666666668,53.175303348516394,83.66666412353516
41,15041,123.89476666666667,5.037204377783376,1.3725,34.393496521389196,19.33333396911621
42,15042,72.55,3.322669992888914,1.1262444444444444,53.337405554901835,0.9345794320106506
43,15043,130.90831111111112,10.4957666075772,1.5162666666666667,71.84493719207808,126.0
44,15044,98.90974444444444,5.580399493131909,1.2918444444444444,38.44035868815034,0.9837398529052734
45,15045,153.45794444444445,2.9362851671253973,1.0419555555555555,12.669741913025778,0.7689242959022522
46,15046,111.54217777777778,8.497534027348422,1.4365444444444444,63.46848489286697,1.0
47,15047,110.1171,8.901595726030166,1.5193333333333334,88.89021170444009,0.9039999842643738
48,15048,144.65015555555556,17.38673231937698,1.7804666666666666,78.28711933280213,1.0
49,15049,141.76997777777777,6.205284713936716,1.3829333333333333,26.50725552144896,0.920634925365448
50,15050,79.41943333333333,5.324622406883536,1.1427888888888889,52.71061134846431,0.9567099809646606
51,15051,140.6934222222222,11.969594224985123,1.4457222222222221,54.849031251260826,253.0
52,15052,120.19885555555555,4.498970947387339,1.4401666666666666,42.59104082458512,0.9367588758468628
53,15053,146.15384444444445,8.480572549703417,1.3935333333333333,54.690070947440155,24.399999618530273
54,15054,0.0,0.0,0.0,0.0,0.0
55,15055,107.34933333333333,5.811635789479435,1.3114555555555556,59.50770718307127,inf
56,15056,154.5142,9.75860331988288,1.4929444444444444,59.73145947572513,41.33333206176758
57,15057,138.30468888888888,10.493687419264845,1.583688888888889,75.09484268318775,1.0
58,15058,122.73443333333333,6.4225731927874214,1.2535222222222222,27.218210524629857,7.814815044403076
59,15059,102.52943333333333,6.512411113410636,1.4277,111.21622004032908,22.090909957885742
60,15060,155.3183,2.9691094036008963,0.8837222222222222,107.92180969439436,4.5217390060424805
61,15061,118.78838888888889,10.337410860746264,1.5504555555555555,60.908509466392964,9.15999984741211
62,15062,141.2472111111111,6.052732347555866,1.4128777777777777,44.287308400519635,83.66666412353516
63,15063,112.81054444444445,12.467446131817114,1.6476333333333333,29.894381292162983,inf
64,15064,112.58497777777778,13.009993327339398,1.7016333333333333,35.73948207002031,inf
65,15065,138.7461111111111,3.928248723988592,1.1804666666666668,44.588381271887364,9.608695983886719
66,15066,131.9892888888889,14.74584050239448,1.6613,67.66593472652957,inf
67,15067,149.53985555555556,8.052599721776723,1.5574333333333332,28.37845167385035,253.0
68,15068,129.85855555555557,6.433760565108825,1.2362777777777778,46.14657889933581,22.090909957885742
69,15069,172.25385555555556,15.258691331470157,1.7798777777777777,83.32908459045117,27.22222137451172
70,15070,175.21862222222222,5.338884873482248,1.1170888888888888,46.458339560465845,41.33333206176758
71,15071,143.00225555555556,5.444757782952114,1.1053555555555556,55.84056124060822,0.9668049812316895
72,15072,130.91868888888888,5.235188389316239,1.1050333333333333,115.29306986527742,41.33333206176758
73,15073,99.56191111111112,13.655158800708891,1.6935666666666667,40.55251805278965,1.0
74,15074,149.45304444444446,6.253922286607988,1.505311111111111,63.98454039678225,0.9760000109672546
75,15075,154.67215555555555,10.936217536969947,1.7162666666666666,65.77569755797109,24.399999618530273
76,15076,120.42353333333334,5.807940669690608,1.3445444444444445,70.09741431042765,12.052631378173828
77,15077,106.67716666666666,15.411842828231903,1.7435222222222222,81.61767152224661,1.0
78,15078,150.2899111111111,6.802798770957382,1.391688888888889,57.78161502916382,0.9683794379234314
79,15079,132.36488888888888,8.916204720844172,1.4236,46.463255331618726,1.0
80,15080,108.20637777777777,8.07842206722623,1.5563111111111112,52.295896177479406,inf
81,15081,166.43314444444445,6.055771760795418,0.9570666666666666,68.91666102225413,1.0
82,15082,168.50732222222223,7.644286133360829,1.5946222222222222,27.59648718478725,27.22222137451172
83,15083,126.7290111111111,13.994000480104354,1.6668777777777777,77.33224541043614,1.0
84,15084,129.26373333333333,9.342580969513298,1.4507222222222222,41.31842256128954,1.0
85,15085,112.11863333333334,9.480139137821379,1.515211111111111,35.221711969405206,24.399999618530273
86,15086,121.58037777777778,12.494189812622857,1.7138777777777778,76.24224682621899,1.0
87,15087,123.28135555555555,15.87519897427414,1.5713777777777778,58.74294408109725,1.0
88,15088,87.55912222222223,16.473739314654107,1.7122777777777778,48.88361196658122,1.0
89,15089,108.12873333333333,10.322808333837024,1.6704,54.82607500398693,253.0
90,15090,148.15395555555557,14.668860153648764,1.6374555555555557,61.43422275392792,49.79999923706055
91,15091,174.10723333333334,3.9695680270404536,1.0482888888888888,66.77610645120154,4.291666507720947
92,15092,45.2138,6.338543987874627,1.4863333333333333,24.314459290099272,1.0
93,15093,80.81927777777778,6.39787496933725,1.2670222222222223,15.257057074114488,41.33333206176758
94,15094,131.9758111111111,8.093938943668261,1.5909222222222221,50.03056106876893,11.600000381469727
95,15095,86.92795555555556,12.650365874492328,1.5991555555555557,65.9586667729728,1.0
96,15096,92.8003,10.857105691123882,1.4112444444444445,82.22356093832619,1.0
97,15097,78.86368888888889,9.686564374267155,1.5473666666666666,41.31972693702618,inf
98,15098,139.02414444444443,12.072302892368219,1.6369,48.55569478461908,0.9921568632125854
99,15099,120.98147777777778,3.563509142940036,1.1844333333333332,53.064758547492204,1.0
