,id,brightness_picture,sharpness_picture,entropy_picture,colorfulness_picture,contrast_picture
0,16700,156.13426666666666,9.245669713550571,1.5897222222222223,38.551758294786524,30.25
1,16701,119.52602222222222,8.98182950820196,1.5318444444444443,94.01801167829345,22.090909957885742
2,16702,151.43155555555555,7.895446837847421,1.389988888888889,47.26726261084107,1.0
3,16703,141.85791111111112,8.813489982176304,1.5682888888888888,44.75629121382419,49.79999923706055
4,16704,78.89248888888889,8.998095679334845,1.509088888888889,50.654561526794865,49.79999923706055
5,16705,98.55662222222222,20.692642345512727,1.7077444444444445,30.754082739747627,62.5
6,16706,133.6122,14.860193395509809,1.5061222222222221,85.62986447390986,1.0
7,16707,164.5390111111111,7.83567782406795,1.3062222222222222,44.21282954834489,inf
8,16708,90.38597777777778,9.305343604536446,1.4360444444444445,51.06640782683552,1.0
9,16709,119.42265555555555,9.934431596613472,1.458711111111111,53.60174874125644,1.0
10,16710,160.88683333333333,7.712149506672493,1.5421555555555555,25.401769065583718,123.0
11,16711,151.06775555555555,9.575959741864445,1.5348,62.895889040616424,inf
12,16712,89.63328888888888,14.535697916378865,1.711011111111111,113.22651965560577,1.0
13,16713,114.91055555555556,6.432157899418763,1.3343888888888888,54.56198769926286,126.0
14,16714,156.63486666666665,9.86756221914796,1.367611111111111,42.96398351687728,243.0
15,16715,137.24166666666667,9.560352295807359,1.5686333333333333,38.266836652757306,inf
16,16716,141.346,9.79627842294805,1.6389555555555555,64.40549838414148,30.25
17,16717,133.26444444444445,15.089806410315662,1.597588888888889,51.62430533220333,inf
18,16718,168.8164,10.643793356435665,1.5264555555555555,77.02940230190251,7.4666666984558105
19,16719,119.60921111111111,8.149043309815154,1.5199333333333334,67.66124182302153,inf
20,16720,142.32105555555555,9.561256733691737,1.4622,46.07124531141841,253.0
21,16721,127.39617777777778,7.337652836565932,1.553688888888889,56.75445407364918,0.9656652212142944
22,16722,120.50141111111111,8.999575987080453,1.4079555555555556,30.74865016970677,1.0
23,16723,143.37668888888888,11.942035721872866,1.6329,49.126687963676275,249.0
24,16724,141.06305555555556,21.295952595035203,1.7893555555555556,21.923890856499487,126.0
25,16725,89.65652222222222,6.608890954971752,1.200088888888889,52.213250095710194,1.0
26,16726,175.15557777777778,7.903376565256148,1.6065666666666667,46.45358081599171,23.799999237060547
27,16727,110.36487777777778,5.087185528236293,1.3308111111111112,34.4587615925126,0.686274528503418
28,16728,95.59185555555555,16.162635772406077,1.7542444444444445,64.35776327470644,1.0
29,16729,121.2224,5.7818295755615985,1.3284777777777779,38.87139573214999,inf
30,16730,122.39765555555556,11.588627314344132,1.6344333333333334,62.41085736191215,1.0
31,16731,129.23314444444443,6.796756899488029,1.3075777777777777,62.753836445648616,1.0
32,16732,107.51345555555555,16.35421496936561,1.7504333333333333,111.27725766835516,83.66666412353516
33,16733,94.69911111111111,5.59159110169583,1.3502777777777777,38.438085976308834,1.0
34,16734,71.90472222222222,9.153319605418597,1.6444666666666667,34.9646974680843,62.5
35,16735,88.59932222222223,9.698580374424692,1.4752444444444444,50.51587440502344,0.9843137264251709
36,16736,113.71818888888889,10.26736206513131,1.5568444444444445,74.91155350604586,1.0
37,16737,108.37227777777778,9.485745533369094,1.6585,42.44015975242896,1.0
38,16738,127.32141111111112,16.003284617310996,1.6897777777777778,27.38240507973501,1.0
39,16739,128.1059888888889,15.402788258797528,1.8052333333333332,56.74287399821512,49.79999923706055
40,16740,116.67315555555555,5.859421636681319,1.3308444444444445,23.052340878893755,49.79999923706055
41,16741,121.28218888888888,10.360629244364446,1.407,59.308602932544005,1.0
42,16742,94.89173333333333,12.322620145079748,1.6273666666666666,50.60152936352107,1.0
43,16743,144.53603333333334,9.345823384690936,1.671988888888889,43.9950647190941,inf
44,16744,94.08932222222222,7.9732151919205805,1.458388888888889,60.0241980408626,1.0
45,16745,137.07705555555555,12.180884153413473,1.726,48.33996044754877,1.0
46,16746,139.27936666666668,6.544854989058979,1.4368888888888889,71.74138210609661,1.0
47,16747,120.57515555555555,9.973485446760618,1.5856222222222223,57.67508848392282,35.0
48,16748,130.97577777777778,9.610200333908704,1.5977555555555556,81.50725802066026,inf
49,16749,89.55218888888889,6.232393419159282,1.4106444444444444,35.29597987763171,1.0
50,16750,138.15956666666668,7.656118152969933,1.3971666666666667,53.09665428877862,11.095237731933594
51,16751,94.41072222222222,6.785715820272373,1.5101888888888888,71.36671788585454,1.0
52,16752,160.15135555555557,14.57891082506395,1.4637888888888888,48.0572625095312,inf
53,16753,75.69541111111111,6.36166389037919,1.3707111111111112,60.62026657946096,0.9913420081138611
54,16754,123.75198888888889,3.8947424560228416,1.2916222222222222,22.55405904295992,0.5760368704795837
55,16755,107.10473333333333,9.356059689121327,1.4116444444444445,35.74437044310097,1.0
56,16756,140.10592222222223,20.084818325946873,1.8049333333333333,41.35970031216676,1.0
57,16757,128.40776666666667,13.992769736621904,1.7173777777777777,55.88918307364712,1.0
58,16758,168.88886666666667,13.242254577302418,1.4482333333333333,72.77397303409023,1.0
59,16759,116.90865555555555,9.91418359283599,1.5810444444444445,45.62098138710918,62.5
60,16760,133.5898222222222,9.006218183245783,1.4677888888888888,67.99187029929908,1.0
61,16761,124.86495555555555,6.079640878641769,1.2686666666666666,77.50384492987594,1.0
62,16762,128.8399,7.8485259499264295,1.3466333333333333,64.05188755039435,81.66666412353516
63,16763,96.26253333333334,10.07671541126432,1.6898555555555557,78.19629489369518,0.9919354915618896
64,16764,130.441,9.898896778611375,1.5565777777777778,61.359457067974276,1.0
65,16765,109.21875555555556,11.826920186344019,1.5644111111111112,53.42207331052556,126.0
66,16766,115.89407777777778,9.623861705943398,1.6991,46.21696222712817,0.8951964974403381
67,16767,136.44515555555554,5.252074567207474,1.3173555555555556,64.01425933746768,16.714284896850586
68,16768,114.80222222222223,10.854604634791166,1.6797111111111112,98.84645584807853,1.0
69,16769,111.09663333333333,14.153492297035378,1.5581888888888888,58.69486211153931,1.0
70,16770,0.0,0.0,0.0,0.0,0.0
71,16771,144.06001111111112,6.880052725579418,1.5484333333333333,77.47080781183408,0.95652174949646
72,16772,122.67404444444445,6.6924974492347955,1.5080222222222222,72.60235822650932,0.9396551847457886
73,16773,174.38026666666667,6.027075187849709,1.4198666666666666,43.35428439947438,36.33333206176758
74,16774,142.1877,6.857136506083772,1.4613555555555555,40.42050802776874,1.0
75,16775,132.94754444444445,5.382087326287263,1.3284666666666667,74.16937455677603,1.0
76,16776,148.89535555555557,12.80951807454855,1.401788888888889,82.07308530589947,126.0
77,16777,0.0,0.0,0.0,0.0,0.0
78,16778,112.71263333333333,10.383103876940261,1.6245888888888889,77.2343645170084,1.0
79,16779,107.49006666666666,18.045085289200657,1.7295222222222222,29.73542074729488,126.0
80,16780,141.88511111111112,8.46325491305116,1.4056333333333333,36.61270450599781,1.0
81,16781,127.74977777777778,8.12581414801977,1.5124111111111112,57.251045027741526,0.9916666746139526
82,16782,140.79602222222223,13.04524533957108,1.448488888888889,71.13865390314471,83.66666412353516
83,16783,84.86521111111111,13.228657583477519,1.4715777777777779,34.414777538599466,inf
84,16784,161.25094444444446,5.115381631724274,1.3343222222222222,53.01441307452954,126.0
85,16785,73.8297,10.161081660907923,1.5332444444444444,49.54668767434855,1.0
86,16786,170.34555555555556,6.576655985170945,1.1260444444444444,75.10306089792151,33.28571319580078
87,16787,119.4138,8.709306639007393,1.6401333333333334,69.6253292564558,1.0
88,16788,134.34407777777778,2.196553653398021,0.9923888888888889,49.806536720270024,0.7408906817436218
89,16789,138.18661111111112,13.37941399979565,1.6651,101.46007991586198,49.79999923706055
90,16790,86.40061111111112,7.271459560379932,1.3038222222222222,75.70481387832592,121.0
91,16791,163.46365555555556,11.528347932420969,1.4626222222222223,57.879609094011414,126.0
92,16792,107.87064444444445,12.588173723747987,1.6583,88.311743240601,1.0
93,16793,125.75164444444444,9.624474919397548,1.3981333333333332,57.11186634041272,1.0
94,16794,122.3077,8.019379650047567,1.5612555555555556,41.96499607067935,1.0
95,16795,79.69971111111111,6.881078751688525,1.3532666666666666,60.687431529624604,62.5
96,16796,114.06386666666667,14.445445668364624,1.775511111111111,63.62678943094725,0.9921568632125854
97,16797,134.7508222222222,10.615691896826597,1.6169555555555555,52.38109915840913,27.22222137451172
98,16798,133.34123333333332,18.288810458812744,1.7239444444444445,93.67591478409204,1.0
99,16799,139.10624444444446,7.574782380252506,1.4571,71.29596979645233,1.0
