,id,brightness_picture,sharpness_picture,entropy_picture,colorfulness_picture,contrast_picture
0,24500,150.38915555555556,6.829206881109338,1.1539777777777778,40.78481634292694,20.0
1,24501,115.4678888888889,10.548367516044978,1.2854,39.76278308852884,1.0
2,24502,166.95478888888888,13.44223406085997,1.2605333333333333,41.63993007645852,83.66666412353516
3,24503,151.5995,11.05188913570675,1.7179888888888888,32.71942400659013,50.0
4,24504,138.6034,11.404040025762102,1.3424888888888888,59.88049784034777,83.66666412353516
5,24505,144.0669,9.790118007234618,1.5343555555555555,52.56040874909947,1.0
6,24506,159.2873111111111,8.111988351917892,1.3699777777777777,109.76350280567442,27.0
7,24507,98.49042222222222,5.44840693103742,1.1314777777777778,51.47431098240314,1.0
8,24508,102.93417777777778,6.813412773013522,1.5646666666666667,70.983670557144,49.79999923706055
9,24509,128.27464444444445,9.50505567138295,1.4469222222222222,36.050171592868,8.407407760620117
10,24510,0.0,0.0,0.0,0.0,0.0
11,24511,138.72823333333332,11.855397451285537,1.5924222222222222,54.355382418769864,1.0
12,24512,110.2992888888889,10.898499346220214,1.323888888888889,59.91358175775898,1.0
13,24513,73.87275555555556,7.068894472871109,1.301,41.568749706317035,1.0
14,24514,163.04551111111113,5.8068077533305065,1.2620777777777779,36.921640296787935,8.333333015441895
15,24515,192.60824444444444,5.776438299775626,1.2296777777777779,86.65433339292005,12.263157844543457
16,24516,158.16704444444446,8.068861294335685,1.6081333333333334,46.437461306951796,126.0
17,24517,77.10813333333333,9.157920704929062,1.4380777777777778,53.77565062606426,1.0
18,24518,164.98997777777777,6.033461126494709,1.3989333333333334,32.81260596359923,1.0
19,24519,108.38556666666666,8.774899555853361,1.5314222222222222,56.26163680311935,251.0
20,24520,114.70092222222222,10.076495706790043,1.4140555555555556,69.08670056131707,inf
21,24521,83.76206666666667,11.095105630125339,1.6338,87.0791443358298,126.0
22,24522,139.0756,9.001815515115021,1.5091,33.36694591963464,1.0
23,24523,74.03387777777778,5.3447401829238155,1.0815,40.29922611367715,1.0
24,24524,133.03776666666667,6.162451591497714,1.4493,58.33239776060915,27.75
25,24525,121.20887777777777,7.546639058630385,1.3164777777777779,48.99691092795674,41.33333206176758
26,24526,147.00137777777778,7.4545717739556,1.481511111111111,74.19877904801655,0.9842519760131836
27,24527,137.37703333333334,9.944238594006137,1.4860444444444445,34.64224238733845,1.0
28,24528,150.6937,8.912379007823935,1.6920222222222223,57.39294586975355,3.6666667461395264
29,24529,126.29987777777778,8.871270308522213,1.311288888888889,49.81054168964417,253.0
30,24530,110.08825555555556,12.387561733175113,1.5774222222222223,86.75519012182835,0.9527559280395508
31,24531,137.45005555555556,8.789438391753562,1.5941777777777777,72.66316642278937,13.941176414489746
32,24532,112.67102222222222,15.288509815252748,1.8070444444444445,69.79104183213465,0.9504132270812988
33,24533,113.5117,6.999652630935533,1.5255888888888889,36.9969579032385,0.9572649598121643
34,24534,195.98246666666665,5.751333767873975,0.9815111111111111,68.59275238786675,14.875
35,24535,117.54804444444444,8.712087630793537,1.559388888888889,19.98890864236767,126.0
36,24536,138.52597777777777,13.338687445980975,1.5991777777777778,35.30992099001996,83.66666412353516
37,24537,143.33425555555556,13.706227233873168,1.4510777777777777,48.20224146663461,1.0
38,24538,155.03415555555554,9.41664893140953,1.5729111111111111,75.62967066786283,13.941176414489746
39,24539,110.68714444444444,10.427807298294782,1.6096555555555556,40.66889462772295,1.0
40,24540,130.67936666666665,5.420447873216443,1.305,43.9078483864446,0.7847533822059631
41,24541,146.8884888888889,8.27492606455778,1.5205333333333333,73.62938343302241,20.16666603088379
42,24542,112.14604444444444,10.990562261431945,1.6055444444444444,56.758898897917405,inf
43,24543,113.49965555555555,9.556975910257703,1.3904222222222222,36.306878616944694,1.0
44,24544,122.71436666666666,18.78326080325389,1.8023111111111112,35.96108265408081,1.0
45,24545,0.0,0.0,0.0,0.0,0.0
46,24546,148.99094444444444,12.375571496067234,1.5676444444444444,76.6147344991272,1.0
47,24547,106.11056666666667,12.861680820957806,1.6769333333333334,58.33128297830142,1.0
48,24548,99.95332222222223,6.261724629385149,1.3735,118.32988034586353,1.0
49,24549,131.81936666666667,10.618454207109401,1.5508,51.30118886969426,1.0
50,24550,115.56062222222222,7.744597955678318,1.4221444444444444,56.63236368626055,1.0
51,24551,134.3724,6.713015771861813,1.3260555555555555,43.4258223149516,40.33333206176758
52,24552,117.38206666666666,13.654588637019861,1.6378555555555556,63.252049752209004,1.0
53,24553,127.98785555555556,4.5493242030346375,1.2734,52.176581224679126,0.9470899701118469
54,24554,137.6952777777778,10.555057318849185,1.5951,79.27969893370475,30.75
55,24555,89.29545555555555,4.718424842490763,1.2431333333333334,51.23848499130618,0.9919354915618896
56,24556,75.6361888888889,6.971092138638325,1.174611111111111,60.34636930642881,30.75
57,24557,105.97297777777777,13.048631095592771,1.7718222222222222,57.64553597708752,12.368420600891113
58,24558,157.5511888888889,8.563489760837388,1.5088555555555556,47.755628441164305,49.79999923706055
59,24559,109.57331111111111,16.68575805678338,1.7507666666666666,65.07475809703485,62.5
60,24560,89.41491111111111,14.19138394142556,1.5691666666666666,77.08591948580076,1.0
61,24561,171.34195555555556,8.757000121685252,1.4654777777777779,44.762171263397725,30.75
62,24562,162.3566111111111,12.090503155538816,1.1516444444444445,68.40060829597904,1.0
63,24563,0.0,0.0,0.0,0.0,0.0
64,24564,0.0,0.0,0.0,0.0,0.0
65,24565,134.5297,13.591395046015803,1.6936444444444445,41.55487644752767,1.0
66,24566,155.23336666666665,3.4330262373929403,0.8663555555555555,32.57886314628355,30.5
67,24567,88.92042222222223,11.537088263749498,1.6529111111111112,42.79213344250965,49.79999923706055
68,24569,137.0045888888889,8.846687081427042,1.4799888888888888,45.82924609511874,83.66666412353516
69,24570,0.0,0.0,0.0,0.0,0.0
70,24571,128.9378,9.197180626235735,1.4057,52.02686746988026,20.16666603088379
71,24572,160.29655555555556,12.764473940474687,1.482911111111111,58.9045838645311,inf
72,24573,86.1969,9.323281418606712,1.5951222222222223,40.76476262231748,1.0
73,24574,101.6524,12.179214051367149,1.6286666666666667,66.25385963502339,1.0
74,24575,111.42003333333334,24.420261344159954,1.6338777777777778,30.86297690177644,1.0
75,24576,143.85773333333333,5.773673275105586,1.1621444444444444,53.3829092761451,0.8503937125205994
76,24577,91.1802,14.422098857789168,1.6256222222222223,29.4156400175712,1.0
77,24578,155.21443333333335,3.9162541840556266,0.9433666666666667,24.997959847578652,83.66666412353516
78,24579,129.92801111111112,9.628920528247425,1.5157666666666667,81.91838953041601,0.9514170289039612
79,24580,143.2907,9.18526121774223,1.5763,24.19138126651417,217.0
80,24581,149.44076666666666,17.526294518419167,1.6288777777777779,63.15101058619693,1.0
81,24582,130.51062222222222,6.462490817154252,1.3985333333333334,28.833901631096722,41.33333206176758
82,24583,133.05935555555556,9.021820971629237,1.3702222222222222,40.31092857286583,1.0
83,24584,146.96334444444443,9.645003619207579,1.4571444444444444,76.09511991793684,1.0
84,24585,118.98088888888888,6.546069364016184,1.3415555555555556,55.57268735763752,inf
85,24586,172.48806666666667,10.460083183990442,1.3013,42.33645472663997,1.0
86,24587,128.43942222222222,17.173940950141056,1.7195777777777779,91.40146679345247,inf
87,24588,173.8234111111111,3.136142708496138,1.018911111111111,20.56223304190551,6.411764621734619
88,24589,128.98034444444446,5.041959005178688,1.3319333333333334,45.62527971469056,126.0
89,24590,118.5943,5.890929672576671,1.1961222222222223,46.106804298116074,1.0
90,24591,132.2593222222222,6.972943497773078,1.5002111111111112,19.455210132567043,11.699999809265137
91,24592,179.9170777777778,7.660252331010269,1.1017666666666666,77.4653666806506,17.14285659790039
92,24593,189.51101111111112,8.603415105880778,1.2112666666666667,66.98012378303703,62.0
93,24594,114.3967,10.268271257420313,1.5244111111111112,51.86873443052255,1.0
94,24595,132.1699,7.049365335713081,1.1509222222222222,40.01900268425338,1.0
95,24596,164.29618888888888,9.898356397405209,1.5707444444444445,91.13795179310654,1.0
96,24597,134.00573333333332,12.544985756873308,1.6374555555555557,63.74573949229391,1.0
97,24598,138.49104444444444,11.611288756057109,1.6478111111111111,30.42994055047818,1.0
98,24599,211.99313333333333,4.31637508336219,0.739,41.21885614431723,4.291666507720947
