,id,brightness_picture,sharpness_picture,entropy_picture,colorfulness_picture,contrast_picture
0,12400,139.3728,6.229345662020336,1.3166888888888888,49.5190822817509,0.9450980424880981
1,12401,131.2797888888889,9.175208707702726,1.3687555555555555,80.30386214152588,62.5
2,12402,102.3895888888889,12.351355127830718,1.6640444444444444,46.44045301654012,inf
3,12403,109.70698888888889,7.227787521994745,1.5699444444444444,11.837227681418941,0.9912663698196411
4,12404,141.59515555555555,4.272388662167222,1.0635555555555556,51.7194535071696,0.8542510271072388
5,12405,77.91878888888888,9.713514289550924,1.4261666666666666,31.618400658908723,1.0
6,12406,94.29115555555556,13.344134474882546,1.7038888888888888,27.973688472961943,1.0
7,12407,100.33251111111112,16.339299340032014,1.7973777777777777,48.298352506305605,1.0
8,12408,113.95511111111111,6.752157302600573,1.4704111111111111,47.02663761993378,13.11111068725586
9,12409,135.75336666666666,15.454020381722223,1.6832555555555555,66.70704257872272,1.0
10,12410,140.49737777777779,16.456847001475907,1.7778555555555555,38.39169523206576,1.0
11,12411,127.23651111111111,8.243226396704207,1.3605666666666667,37.95128864703043,62.5
12,12412,135.52752222222222,8.959896805001797,1.606011111111111,25.370270313613535,49.79999923706055
13,12413,140.09346666666667,7.598748860675799,1.4172333333333333,24.61772206309544,1.0
14,12414,60.599866666666664,5.856478232428825,1.4364,12.099297487454765,1.0
15,12415,123.09492222222222,12.783026945020843,1.5231777777777777,52.88494723910057,27.22222137451172
16,12416,107.03445555555555,6.135410949289381,1.3176555555555556,51.51551113657195,1.0
17,12417,100.5758,3.394260623542998,1.2185222222222223,15.612185711432923,0.9203979969024658
18,12418,150.01871111111112,7.400944675266602,1.3892222222222221,59.798734278446496,inf
19,12419,163.60723333333334,11.128479814864606,1.6794555555555555,71.23034633196133,4.18367338180542
20,12420,164.35618888888888,8.053626142199912,1.3347,71.00116860354392,83.66666412353516
21,12421,126.0997,13.729897254504744,1.7720444444444445,57.03065333252847,0.9921259880065918
22,12422,99.08461111111112,9.951100535664262,1.4103555555555556,40.75128676748705,126.0
23,12423,102.1155888888889,8.435522799075649,1.4520333333333333,71.67805974357375,1.0
24,12424,0.0,0.0,0.0,0.0,0.0
25,12425,0.0,0.0,0.0,0.0,0.0
26,12426,155.32405555555556,4.833081671580998,1.181111111111111,12.543582747983105,126.0
27,12427,99.7247888888889,11.924815051475106,1.6243444444444444,29.999646369475677,1.0
28,12428,79.95091111111111,10.440603875437441,1.6133555555555557,33.210201377419736,1.0
29,12429,141.2546111111111,8.276360113230192,1.7166444444444444,58.03137864812038,49.79999923706055
30,12430,49.844544444444445,5.438339968493169,1.0868444444444445,36.959443706813005,1.0
31,12431,109.94333333333333,5.918555830988337,1.3049,51.97064938829216,0.9502074718475342
32,12432,128.7960111111111,7.286404384391574,1.4129777777777779,54.32940073616132,241.0
33,12433,128.82201111111112,7.195599542703588,1.4819555555555555,77.42063567701848,15.800000190734863
34,12434,110.7364,4.9669952841321905,1.4429666666666667,28.450041608557974,0.9711538553237915
35,12435,127.64124444444444,9.505828089300987,1.6295,63.03883120910439,0.9843137264251709
36,12436,157.84143333333333,9.672470617892847,1.6655,26.689575884513353,122.0
37,12437,93.27016666666667,9.162320519651797,1.6554888888888888,66.97094612204502,0.9647576808929443
38,12438,0.0,0.0,0.0,0.0,0.0
39,12439,103.58574444444444,24.46966827161019,1.676488888888889,38.067537615872155,inf
40,12440,119.412,7.241380078019,1.4994333333333334,22.43094926372174,0.9541284441947937
41,12441,119.8198,10.614310659967755,1.5635777777777777,80.94227506475121,253.0
42,12442,116.27254444444445,13.623606964113119,1.6317111111111111,72.54759889273579,253.0
43,12443,98.61923333333333,9.490167476754273,1.4203777777777777,52.17875267105457,inf
44,12444,131.18363333333335,11.573946582704293,1.6214777777777778,44.43070123446851,1.0
45,12445,169.0056888888889,5.850052355057377,1.2801555555555555,69.46940803298673,11.55555534362793
46,12446,153.97287777777777,11.38802851259201,1.5572,70.77468544403885,1.0
47,12447,42.39731111111111,7.716652144157606,1.2475555555555555,54.48830700863145,1.0
48,12448,121.52445555555556,25.203695218442366,1.7615555555555555,30.170654820123374,1.0
49,12449,101.25228888888888,8.797108754915241,1.6175111111111111,29.913331887719018,1.0
50,12450,0.0,0.0,0.0,0.0,0.0
51,12451,66.04007777777778,5.8916518522573735,1.1083444444444444,39.26194269718748,inf
52,12452,149.02246666666667,8.213401206586083,1.5164,41.68464935101258,1.0
53,12453,184.6979888888889,7.84376208448461,1.3961333333333332,64.39473332022312,8.071428298950195
54,12454,131.20564444444443,5.7539940745075295,1.2617444444444443,25.456656727402585,0.8583333492279053
55,12455,120.90298888888888,11.585896618266032,1.7074666666666667,63.253879271666605,30.75
56,12456,109.73947777777778,14.835703567388284,1.573811111111111,46.532878330039374,inf
57,12457,107.10421111111111,3.3375817631260207,1.3464777777777779,22.542007949609186,0.9743589758872986
58,12458,69.27794444444444,12.494670257402477,1.5328,47.839989547216724,inf
59,12459,127.32664444444444,13.07904761073926,1.777711111111111,33.8482429181551,1.0
60,12460,115.16858888888889,14.587931965325438,1.6297555555555556,17.357863367799904,0.9604743123054504
61,12461,158.7387,5.0533410577153814,1.2583333333333333,64.11542105917718,9.34782600402832
62,12462,108.33397777777778,8.278381858209366,1.5987555555555555,59.29810067644515,13.941176414489746
63,12463,118.28101111111111,16.361959532650875,1.7321,60.21006286675315,1.0
64,12464,110.90641111111111,11.541806864832804,1.509011111111111,67.78424744069878,1.0
65,12465,136.65772222222222,9.703033447409641,1.4184555555555556,71.18369194909343,0.8818897604942322
66,12466,196.37668888888888,2.5316746159148136,0.9286111111111112,37.76431736839158,2.681159496307373
67,12467,130.55236666666667,4.773183367934922,1.0507,46.316367258489734,0.9914893507957458
68,12468,118.81645555555555,13.846904706389882,1.6569777777777779,54.99873662107316,126.0
69,12469,156.5723,8.764830471405483,1.4056555555555557,39.4806832213195,35.28571319580078
70,12470,144.03984444444444,10.593236609952054,1.5691666666666666,33.36440046369659,1.0
71,12471,66.63437777777777,5.502989264981778,1.2512555555555556,56.670288567646956,1.0
72,12472,0.0,0.0,0.0,0.0,0.0
73,12473,134.62943333333334,5.226883889004009,1.5101333333333333,61.17392570032385,24.399999618530273
74,12474,122.17856666666667,11.647161390814409,1.7557666666666667,73.63734098046751,0.992094874382019
75,12475,149.05953333333332,12.768068340134633,1.5047333333333333,35.47326887391185,1.0
76,12476,0.0,0.0,0.0,0.0,0.0
77,12477,156.1568888888889,6.789327468222118,1.297911111111111,68.61124775319804,1.0
78,12478,103.55917777777778,11.257867786405606,1.4869555555555556,34.54437177240557,1.0
79,12479,110.41966666666667,12.805703774706563,1.6287,64.04763873564454,1.0
80,12480,115.1088,5.495960617748476,1.0524888888888888,34.53542481442886,0.9920634627342224
81,12481,137.52388888888888,10.040116651499831,1.6748333333333334,26.234811365512392,49.79999923706055
82,12482,122.77607777777777,11.342199459316273,1.609488888888889,54.26862353933582,126.0
83,12483,107.93402222222223,18.01585395668894,1.6897444444444445,55.564408408533566,253.0
84,12484,139.75931111111112,10.136353910059372,1.6969555555555556,96.45282417799888,45.400001525878906
85,12485,72.27206666666666,6.16864870674301,1.498588888888889,39.23147420796023,1.0
86,12486,74.51906666666666,7.803404060199656,1.281311111111111,61.2838164519174,1.0
87,12487,118.90337777777778,12.339186696758672,1.6088666666666667,30.89221824120549,1.0
88,12488,105.2973,3.347833680893129,1.1107111111111112,14.492029670702298,1.0
89,12489,132.25372222222222,6.907076933715667,1.357788888888889,29.564512420793505,0.9604743123054504
90,12490,88.66033333333333,8.458494081015878,1.4296555555555555,78.38291443100812,1.0
91,12491,134.68097777777777,9.366341692544335,1.4696111111111112,51.67431409820903,1.0
92,12492,149.68583333333333,5.235903620786589,1.2175888888888888,28.653197397159374,1.0
93,12493,122.58514444444444,8.802557150891628,1.5729666666666666,48.59000534725364,1.0
94,12494,111.17504444444444,8.45478280721547,1.4028666666666667,34.90251150692481,inf
95,12495,0.0,0.0,0.0,0.0,0.0
96,12496,144.29607777777778,9.926563607172174,1.5414444444444444,51.927474720731084,41.33333206176758
97,12497,88.05367777777778,8.970960012134373,1.4215222222222221,31.30571695213754,1.0
98,12498,0.0,0.0,0.0,0.0,0.0
99,12499,127.2874,4.989838095709023,1.2000666666666666,52.18271844279402,77.0
